"Distance [mm]","Mag_H [kA_per_m] - Freq='1MHz' Phase='0deg'"
0,1.58503229642869
0.18,1.58651225954375
0.36,1.58803728143295
0.54,1.58960743188229
0.72,1.59122278062181
0.9,1.5928833973256
1.08,1.59458935161177
1.26,1.59634071304249
1.44,1.59813755112397
1.62,1.59997993530646
1.8,1.60186793498424
1.98,1.60380161949565
2.16,1.60578105812305
2.34,1.60780632009288
2.52,1.60987747457558
2.7,1.61199459068564
2.88,1.61415773748162
3.06,1.61636698396608
3.24,1.61862239908567
3.42,1.62092405173103
3.6,1.62327201073687
3.78,1.62566634488195
3.96,1.62810712288906
4.14,1.63059441342502
4.32,1.6331282851007
4.5,1.63570880647103
4.68,1.63833604603496
4.86,1.64101007223549
5.04,1.64373095345965
5.22,1.64649875803853
5.4,1.64931355424724
5.58,1.65217541030497
5.76,1.6550843943749
5.94,1.6580405745643
6.12,1.66104401892444
6.3,1.66409479545066
6.48,1.66719297208234
6.66,1.67033861670289
6.84,1.67353179713975
7.02,1.67677258116444
7.2,1.68006103649249
7.38,1.68339723078348
7.56,1.68678123164103
7.74,1.69021310661281
7.92,1.69369292319053
8.1,1.69722074880992
8.28,1.7007966508508
8.46,1.70442069663697
8.64,1.70809295343631
8.82,1.71181348846075
9,1.71558236886623
9.18,1.71939966175276
9.36,1.72326543416436
9.54,1.72717975308913
9.72,1.73114268545918
9.9,1.73515429815068
10.08,1.73921465798384
10.26,1.7433238317229
10.44,1.74748188607615
10.62,1.75168888769593
10.8,1.7559449031786
10.98,1.76024999906458
11.16,1.76460424183832
11.34,1.76900769792832
11.52,1.77346043370713
11.7,1.77796251549132
11.88,1.7825140095415
12.06,1.78711498206236
12.24,1.79176549920259
12.42,1.79646562705494
12.6,1.8012154316562
12.78,1.8067440897758
12.96,1.81375644010675
13.14,1.82090636606669
13.32,1.82819359055987
13.5,1.83561785586874
13.68,1.84317892365404
13.86,1.85087657495472
14.04,1.858710610188
14.22,1.86668084914933
14.4,1.8747871310124
14.58,1.88302931432916
14.76,1.89140727702981
14.94,1.89992091642276
15.12,1.9085701491947
15.3,1.91735491141056
15.48,1.9262751585135
15.66,1.93533086532493
15.84,1.94452202604452
16.02,1.95384865425016
16.2,1.963310782898
16.38,1.97290846432244
16.56,1.98264177023611
16.74,1.99251079172989
16.92,2.00251563927292
17.1,2.01265644271255
17.28,2.02293335127442
17.46,2.03334653356238
17.64,2.04389617755853
17.82,2.05458249062324
18,2.06540569949509
18.18,2.07636605029093
18.36,2.08746380850584
18.54,2.09869925901315
18.72,2.11007270606445
18.9,2.12158447328955
19.08,2.1332349036965
19.26,2.14502435967164
19.44,2.15695322297951
19.62,2.16902189476291
19.8,2.18123079554289
19.98,2.19358036521874
20.16,2.20607106306799
20.34,2.21870336774641
20.52,2.23147777728805
20.7,2.24439480910516
20.88,2.25745499998827
21.06,2.27065890610612
21.24,2.28400710300572
21.42,2.29750018561233
21.6,2.31113876822943
21.78,2.32492348453877
21.96,2.33885498760033
22.14,2.35293394985234
22.32,2.36716106311127
22.5,2.38153703857184
22.68,2.39606260680701
22.86,2.41073851776799
23.04,2.42556554078424
23.22,2.44054446456344
23.4,2.45593003426471
23.58,2.47211162513007
23.76,2.48840068805988
23.94,2.50479666617126
24.12,2.52129901323353
24.3,2.53790719366827
24.48,2.55462068254922
24.66,2.57143896560238
24.84,2.58836153920598
25.02,2.60538791039042
25.2,2.62251759683838
25.38,2.63975012688471
25.56,2.65708503951649
25.74,2.67452188437303
25.92,2.69206022174587
26.1,2.70969962257874
26.28,2.72743966846761
26.46,2.74527995166067
26.64,2.7632200750583
26.82,2.78125965221314
27,2.79939830733003
27.18,2.81763567526602
27.36,2.83597140153039
27.54,2.85440514228465
27.72,2.8729365643425
27.9,2.89156534516988
28.08,2.91029117288496
28.26,2.92911374625809
28.44,2.94803277471189
28.62,2.96704797832116
28.8,2.98615908781292
28.98,3.00536584456644
29.16,3.02466800061318
29.34,3.04406531863684
29.52,3.06355757197331
29.7,3.08314454461073
29.88,3.10282603118945
30.06,3.12260183700203
30.24,3.14247177799326
30.42,3.16243568076014
30.6,3.18249338255189
30.78,3.20264473126996
30.96,3.22288958546801
31.14,3.24322781435191
31.32,3.26365929777978
31.5,3.28418392626192
31.68,3.30480160096088
31.86,3.32551223369142
32.04,3.34631574692051
32.22,3.36721207376735
32.4,3.38820115800335
32.58,3.40928295405215
32.76,3.43045742698959
32.94,3.45172455254377
33.12,3.47308431709495
33.3,3.49453671767566
33.48,3.51608176197063
33.66,3.5377194683168
33.84,3.55944986570334
34.02,3.58319962423668
34.2,3.61479239701338
34.38,3.64671744717443
34.56,3.67897457453629
34.74,3.71156360676261
34.92,3.7444843993643
35.1,3.77773683569947
35.28,3.81132082697345
35.46,3.84523631223879
35.64,3.87948325839526
35.82,3.91406166018987
36,3.94897154021682
36.18,3.98421294891755
36.36,4.01978596458072
36.54,4.05569069334219
36.72,4.09192726918506
36.9,4.12849585393965
37.08,4.1653966372835
37.26,4.20262983674135
37.44,4.2401956976852
37.62,4.27809449333422
37.8,4.31632652475484
37.98,4.3548921208607
38.16,4.39379163841264
38.34,4.43302546201876
38.52,4.47259400413434
38.7,4.51249770506191
38.88,4.5527370329512
39.06,4.59331248379917
39.24,4.63422458145001
39.42,4.6754738775951
39.6,4.71706095177307
39.78,4.75898641136976
39.96,4.80125089161822
40.14,4.84385505559874
40.32,4.88679959423883
40.5,4.93008522631318
40.68,4.97655961667034
40.86,5.02432172427755
41.04,5.07250078696905
41.22,5.12109364457675
41.4,5.17009724491603
41.58,5.21950864378582
41.76,5.26932500496855
41.94,5.31954360023017
42.12,5.37016180932018
42.3,5.42117711997157
42.48,5.47258712790088
42.66,5.52438953680811
42.84,5.57658215837687
43.02,5.62916291227421
43.2,5.68212982615074
43.38,5.7354810356406
43.56,5.78921478436141
43.74,5.84332942391435
43.92,5.89782341388409
44.1,5.95269532183884
44.28,6.00794382333033
44.46,6.06356770189381
44.64,6.11956584904804
44.82,6.1759372642953
45,6.23268105512141
45.18,6.28979643699569
45.36,6.34728273337099
45.54,6.40513937568367
45.72,6.46336590335363
45.9,6.52196196378429
46.08,6.58092731236255
46.26,6.64026181245887
46.44,6.69996543542725
46.62,6.76003826060515
46.8,6.82048047531358
46.98,6.88129237485707
47.16,6.94967956182117
47.34,7.03335833116129
47.52,7.11753406626188
47.7,7.20220163810983
47.88,7.28735620136579
48.06,7.37299319436397
48.24,7.45910833911233
48.42,7.54569764129241
48.6,7.63275739025951
48.78,7.72028415904253
48.96,7.80827480434406
49.14,7.89672646654033
49.32,7.98563656968128
49.5,8.07500282149045
49.68,8.1648232133651
49.86,8.25509602037614
50.04,8.34581980126814
50.22,8.43699339845933
50.4,8.52861593804161
50.58,8.62068682978055
50.76,8.71320576711537
50.94,8.80617272715895
51.12,8.89958797069789
51.3,9.00346421988647
51.48,9.11786945745838
51.66,9.23512527619754
51.84,9.35523613913465
52.02,9.47820722808597
52.2,9.60404444365339
52.38,9.73275440522436
52.56,9.86434445097193
52.74,9.9988226378548
52.92,10.1361977416172
53.1,10.2764792567889
53.28,10.4196773966854
53.46,10.5658030934078
53.64,10.719488906843
53.82,10.8807867358277
54,11.0452023762964
54.18,11.2127060587634
54.36,11.3832733001486
54.54,11.556884903778
54.72,11.7335269593834
54.9,11.9131908431025
55.08,12.0958732174786
55.26,12.2815760314612
55.44,12.4703065204055
55.62,12.6620772060726
55.8,12.8569058966293
55.98,13.1070648170305
56.16,13.4321161020645
56.34,13.7754500426341
56.52,14.1371291777222
56.7,14.5172254363324
56.88,14.9158201374892
57.06,15.3330039902382
57.24,15.7688770936454
57.42,16.223548936798
57.6,16.6971383988041
57.78,17.1897737487923
57.96,17.7015926459123
58.14,17.7375905946535
58.32,17.1486332431921
58.5,16.5620961306877
58.68,15.9782307442356
58.86,15.3973605951665
59.04,14.8198812190455
59.22,14.2462601756727
59.4,13.6770370490832
59.58,13.1128234475468
59.76,12.5543030035683
59.94,12.0022313738872
60.12,11.4977490630274
60.3,11.022707509144
60.48,10.5578618361571
60.66,10.1040613448074
60.84,9.66236110289742
61.02,9.23402194529197
61.2,8.82051047391773
61.38,8.42349905776353
61.56,8.04486583288018
61.74,7.68669470238055
61.92,7.35127533643955
62.1,7.9918537203977
62.28,8.70368967496343
62.46,9.44386481187979
62.64,10.2057727070358
62.82,10.9843835536491
63,11.7762441622662
63.18,11.8509743214913
63.36,11.4391846169205
63.54,11.0297053723306
63.72,10.6232224841749
63.9,10.2206161434015
64.08,9.82296083545404
64.26,9.43152534027105
64.44,9.04777273228637
64.62,8.67336038042887
64.8,8.31013994812275
64.98,7.96015739328718
65.16,7.63469184509596
65.34,7.32978239622194
65.52,7.04754411734703
65.7,6.79095651309267
65.88,6.56279125392296
66.06,6.36561217614437
66.24,6.20177528190597
66.42,6.07342873919926
66.6,5.98251288185829
66.78,5.93076020955959
66.96,5.91969538782221
67.14,5.99593912603549
67.32,6.2160611066388
67.5,6.55660959218698
67.68,6.99580291375373
67.86,7.51238402259876
68.04,8.33670235904626
68.22,7.97155252630303
68.4,7.61801561990325
68.58,7.27930944758427
68.76,6.9590027028117
68.94,6.66101496477956
69.12,6.38961669841006
69.3,6.1494292543538
69.48,5.94542486898964
69.66,5.78292666442477
69.84,5.66760864849467
70.02,5.6047055476581
70.2,5.59791964654193
70.38,5.65528703418896
70.56,5.77307134909268
70.74,5.94731755045823
70.92,6.17385191820226
71.1,6.44828205295317
71.28,6.76599687605085
71.46,7.12216662954693
71.64,7.5117428762045
71.82,7.92945849949847
72,8.3698277036156
72.18,7.50600555579486
72.36,7.17272803986629
72.54,6.85229373898289
72.72,6.54497609010979
72.9,6.25111250491751
73.08,5.97110436978202
73.26,5.7054170457847
73.44,5.45457986871229
73.62,5.21918614905708
73.8,5.10204756145675
73.98,5.00738013239221
74.16,4.93220992169941
74.34,4.87563397052221
74.52,4.83659367765122
74.7,4.81387479952377
74.88,4.80610745022398
75.06,4.81176610148273
75.24,4.82916958267762
75.42,4.85568273925441
75.6,4.89244026880837
75.78,4.93907017992163
75.96,4.99513416807774
76.14,5.06019344513096
76.32,5.13380873930621
76.5,5.2155402951991
76.68,5.30494787377592
76.86,5.40159075237363
77.04,5.50502772469984
77.22,5.61481710083288
77.4,5.73051670722177
77.58,5.8516838866861
77.76,5.97787549841629
77.94,6.10864791797332
78.12,6.25384260032598
78.3,6.4138947310449
78.48,6.57979895468041
78.66,6.75142953648306
78.84,6.92866474071452
79.02,7.11138683064734
79.2,7.29948206856522
79.38,7.4928407157628
79.56,7.69135703254579
79.74,7.89492927823084
79.92,8.10345971114575
80.1,8.31685458862916
80.28,8.53502416703092
80.46,8.75788270171176
80.64,8.9853484470435
80.82,9.22062539594889
81,9.50379363033677
81.18,9.81001897887247
81.36,10.1396531892254
81.54,10.493018560779
81.72,10.8704079446306
81.9,11.2720847435915
82.08,11.7224837111861
82.26,12.1930707371858
82.44,12.6837767207236
82.62,13.1948017477703
82.8,13.7263228922094
82.98,14.2784942158378
83.16,14.2448332649654
83.34,13.7302525074064
83.52,13.2210351543638
83.7,12.7177495986452
83.88,12.2211166110237
84.06,11.7320093402379
84.24,11.2514533129921
84.42,10.780626433956
84.6,10.3208589857648
84.78,9.87363362901903
84.96,9.44058540228523
85.14,9.05613235458066
85.32,8.69772012557099
85.5,8.35784692979049
85.68,8.03848932237304
85.86,7.74163267345788
86.04,7.46927116818997
86.22,7.22340780671966
86.4,7.00605440420296
86.58,6.81923159080131
86.76,6.6649688116818
86.94,6.54530432701698
87.12,6.95085477555224
87.3,7.38213568211216
87.48,7.9044340835338
87.66,8.50664026183373
87.84,9.17840245253835
88.02,10.1904928549415
88.2,9.8470738573623
88.38,9.51025963073098
88.56,9.18120195133826
88.74,8.86126014694153
88.92,8.55200109676493
89.1,8.25519923149929
89.28,7.97283653330215
89.46,7.70710253579776
89.64,7.46039432407712
89.82,7.23531653469789
90,7.03468135568448
90.18,6.86022453392636
90.36,6.71537869714166
90.54,6.60196883969278
90.72,6.52133199099347
90.9,6.47431721550875
91.08,6.46128561275501
91.26,6.48211031729996
91.44,6.53617649876262
91.62,6.62238136181333
91.8,6.73913414617375
91.98,6.88435612661691
92.16,6.48234700652728
92.34,6.3531477257033
92.52,6.36556468835796
92.7,6.51360499038106
92.88,6.78358037047283
93.06,7.24315337316858
93.24,6.96890717431328
93.42,6.71886921212914
93.6,6.49819458282256
93.78,6.31147266357365
93.96,6.16272711253592
94.14,6.05541586883651
94.32,5.992431152576
94.5,5.9760994648286
94.68,6.00818158764201
94.86,6.08987258403744
95.04,6.21982187441849
95.22,6.39477635612222
95.4,6.6186790462149
95.58,6.886435625023
95.76,7.19329312685393
95.94,7.53483993999586
96.12,7.90700580671782
96.3,8.3060618232697
96.48,8.72862043988221
96.66,9.17163546076688
96.84,9.6324020441161
97.02,9.69692510876947
97.2,9.18597480973604
97.38,8.70370903436168
97.56,8.25058904300877
97.74,7.82696495935622
97.92,7.43307577039942
98.1,7.06904932645022
98.28,6.73490234113707
98.46,6.43054039140485
98.64,6.18506137888514
98.82,5.99285758563823
99,5.81242283004118
99.18,5.64435508414147
99.36,5.48922065466222
99.54,5.34755418300236
99.72,5.21985864523642
99.9,5.10660535211475
100.08,5.00823394906331
100.26,4.92815866967519
100.44,4.85957030021136
100.62,4.80119148402026
100.8,4.75320250379332
100.98,4.71572099721047
101.16,4.68880195694018
101.34,4.67243773063951
101.52,4.66655802095404
101.7,4.67102988551789
101.88,4.68565773695374
102.06,4.71018334287283
102.24,4.74428582587492
102.42,4.78758166354831
102.6,4.8396246884699
102.78,4.89990608820506
102.96,4.97337382398419
103.14,5.06967727038667
103.32,5.17412382745631
103.5,5.28649367060279
103.68,5.40656823650802
103.86,5.53413022312627
104.04,5.66896358968406
104.22,5.8108535566802
104.4,5.95958660588579
104.58,6.11495048034423
104.76,6.2767341843712
104.94,6.44472798355469
105.12,6.61872340475494
105.3,6.79851323610452
105.48,6.98389152700825
105.66,7.1746535881433
105.84,7.399560121854
106.02,7.65230419534441
106.2,7.92640479601951
106.38,8.222306880814
106.56,8.54039615295038
106.74,8.88099906193924
106.92,9.25661164486175
107.1,9.67272395583641
107.28,10.1089039412869
107.46,10.5652827617743
107.64,11.0419636437956
107.82,11.5390218797837
108,12.0565048281073
108.18,11.9063378465794
108.36,11.3794120447298
108.54,10.8604843271356
108.72,10.3505640263146
108.9,9.85101762962421
109.08,9.36356877926152
109.26,8.89029827226336
109.44,8.43364406050623
109.62,7.99640125070631
109.8,7.58172210441961
109.98,7.19311603804161
110.16,6.86340286497013
110.34,6.56687989053454
110.52,6.30493785479431
110.7,6.08206342857542
110.88,5.90188939026266
111.06,5.76719462579938
111.24,5.67990412868768
111.42,5.64108899998825
111.6,5.65096644832047
111.78,5.70889978986241
111.96,5.81339844835078
112.14,5.69208642399494
112.32,5.76977012635597
112.5,5.98345742512628
112.68,6.32684237927917
112.86,6.78757278895984
113.04,7.48286506094556
113.22,7.17498789239018
113.4,6.88492226673155
113.58,6.61687413046108
113.76,6.37488113219229
113.94,6.16281262266094
114.12,5.98436965472491
114.3,5.84308498336433
114.48,5.74232306568144
114.66,5.68528006090072
114.84,5.6749838303688
115.02,5.71303029772458
115.2,5.79044219164254
115.38,5.91286555557162
115.56,6.07619232032652
115.74,6.27647452152865
115.92,6.5099242996063
116.1,6.77291389979451
116.28,7.06197567213515
116.46,7.37380207147688
116.64,7.70524565747516
116.82,8.05331909459226
117,8.41519515209726
117.18,7.3176288057643
117.36,6.69945012364474
117.54,6.16481591922329
117.72,5.72927529123752
117.9,5.40906569598009
118.08,5.22097340519366
118.26,5.25696522531534
118.44,5.35045191885054
118.62,5.49835323946918
118.8,5.69736627445353
118.98,5.94396544469799
119.16,6.23440250470941
119.34,6.56470654260672
119.52,6.9306839801213
119.7,7.32791857259663
119.88,7.75177140898862
120.06,8.20781329044648
120.24,8.7052087334891
120.42,9.22189368226341
120.6,9.75555857903685
120.78,10.3041418304818
120.96,10.8658298076762
121.14,11.439056846103
121.32,12.0225052456507
121.5,12.6151052706127
121.68,13.216035149688
121.86,13.8247210759808
122.04,13.8339978893165
122.22,13.311996413267
122.4,12.8126928218235
122.58,12.3361020709867
122.76,11.8822346889993
122.94,11.4510967763457
123.12,11.0426900057523
123.3,10.6570116221872
123.48,10.2940544428608
123.66,10.0142923081983
123.84,9.79113549391198
124.02,9.57187120562238
124.2,9.35647368448947
124.38,9.1449397550906
124.56,8.93728882542075
124.74,8.73356288689228
124.92,8.53382651433517
125.1,8.33816686599684
125.28,8.19152062424049
125.46,8.05273454493786
125.64,7.91601961822581
125.82,7.78137471800366
126,7.64879913565351
126.18,7.51829258004042
126.36,7.38985517751221
126.54,7.26348747189966
126.72,7.13919042451629
126.9,7.01696541415859
127.08,6.89681423710586
127.26,6.77873910712022
127.44,6.66274265544671
127.62,6.54882793081322
127.8,6.43699839943044
127.98,6.32725794499199
128.16,6.21961086867429
128.34,6.11406188913667
128.52,6.01061614252128
128.7,5.90927918245315
128.88,5.81005698004015
129.06,5.72134288488016
129.24,5.64311860821704
129.42,5.56540504160863
129.6,5.48819998806159
129.78,5.41150132738577
129.96,5.33530701619418
130.14,5.25961508790297
130.32,5.18442365273135
130.5,5.10973089770176
130.68,5.03553508663976
130.86,4.96183456017406
131.04,4.88862773573644
131.22,4.81591310756192
131.4,4.74368924668861
131.58,4.67195480095778
131.76,4.60070849501379
131.94,4.5299491303042
132.12,4.45967558507971
132.3,4.38988681439413
132.48,4.32058185010443
132.66,4.25175980087068
132.84,4.18447095901077
133.02,4.13850598315376
133.2,4.09255125510874
133.38,4.04660547207838
133.56,4.00066766184414
133.74,3.95473718276621
133.92,3.90881372378353
134.1,3.86289730441377
134.28,3.81698827475338
134.46,3.77108731547753
134.64,3.72519543784017
134.82,3.67931398367395
135,3.63344462539029
135.18,3.58758936597937
135.36,3.54175053901012
135.54,3.49593080863019
135.72,3.45013316956598
135.9,3.40436094712266
136.08,3.35861779718414
136.26,3.31290770621308
136.44,3.26723499125085
136.62,3.22160429991762
136.8,3.17602061041229
136.98,3.13048923151249
137.16,3.08501580257461
137.34,3.04023331339216
137.52,3.00295767470393
137.7,2.9661709471923
137.88,2.92986780461169
138.06,2.89404325777504
138.24,2.85869265455364
138.42,2.82381167987726
138.6,2.78939635573408
138.78,2.75544304117072
138.96,2.72194843229225
139.14,2.68890956226214
139.32,2.65632380130232
139.5,2.62418885669315
139.68,2.59250277277343
139.86,2.56126393094035
140.04,2.5304710496496
140.22,2.50012318441525
140.4,2.47021972780983
140.58,2.44076040946428
140.76,2.41174529606802
140.94,2.38317479136884
141.12,2.35504963617302
141.3,2.32737090834523
141.48,2.30014002280861
141.66,2.27335873154472
141.84,2.24741776941783
142.02,2.22476648030945
142.2,2.20215652844222
142.38,2.17958528179823
142.56,2.15705037907912
142.74,2.13454972970616
142.92,2.11208151382024
143.1,2.08964418228183
143.28,2.06723645667105
143.46,2.04485732928757
143.64,2.02250606315072
143.82,2.00018219199941
144,1.97788552029218
144.18,1.95561612320715
144.36,1.93337434664207
144.54,1.91116080721428
144.72,1.88897639226074
144.9,1.86682225983803
145.08,1.84469983872231
145.26,1.82261082840936
145.44,1.80055719911458
145.62,1.77854119177296
145.8,1.75656531803911
145.98,1.73463236028724
146.16,1.71274537161118
146.34,1.69143677618051
146.52,1.67332749337589
146.7,1.65531989141595
146.88,1.63741084903776
147.06,1.61959751256743
147.24,1.60187729592011
147.42,1.58424788059997
147.6,1.56670721570023
147.78,1.54925351790313
147.96,1.53188527147996
148.14,1.51460122829103
148.32,1.49740040778569
148.5,1.48028209700232
148.68,1.46324585056835
148.86,1.44629149070021
149.04,1.4294191072034
149.22,1.41262905747244
149.4,1.39592196649088
149.58,1.37929872683131
149.76,1.36276049865535
149.94,1.34630870971366
150.12,1.32994505534592
150.3,1.31367149848088
150.48,1.29749026963627
150.66,1.2814038669189
150.84,1.26644003244333
151.02,1.25628284394344
151.2,1.24615991197434
151.38,1.23607121571677
151.56,1.22601673551803
151.74,1.21599645289202
151.92,1.20601035051919
152.1,1.19605841224658
152.28,1.1861406230878
152.46,1.17625696922302
152.64,1.16640743799902
152.82,1.15659201792913
153,1.14681069869325
153.18,1.13706347113787
153.36,1.12735032727605
153.54,1.11767126028743
153.72,1.10802626451821
153.9,1.09841533548118
154.08,1.08883846985569
154.26,1.07929566548769
154.44,1.06978692138967
154.62,1.06031223774073
154.8,1.05087161588652
154.98,1.04146505833928
155.16,1.03209256877782
155.34,1.02275415204751
155.52,1.01344981416033
155.7,1.0041795622948
155.88,0.994943404796023
156.06,0.985741351175693
