"Distance [mm]","Mag_H [kA_per_m] - Freq='1MHz' Phase='0deg'"
0,27.5627053223544
0.18,27.5633552562311
0.36,27.5640108687927
0.54,27.5646721597521
0.72,27.5653391288275
0.9,27.5660117757424
1.08,27.5666901002253
1.26,27.5673741020103
1.44,27.5680637808366
1.62,27.5687591364485
1.8,27.569460168596
1.98,27.5701668770338
2.16,27.5708792615223
2.34,27.571597321827
2.52,27.5723210577185
2.7,27.573050468973
2.88,27.5737855553716
3.06,27.574526316701
3.24,27.5752727527529
3.42,27.5760248633242
3.6,27.5767826482174
3.78,27.5775461072399
3.96,27.5783152402046
4.14,27.5790900469297
4.32,27.5798705272382
4.5,27.580656680959
4.68,27.5814485079258
4.86,27.5822460079777
5.04,27.583049180959
5.22,27.5838580267195
5.4,27.5846725451138
5.58,27.5854927360024
5.76,27.5863185992504
5.94,27.5871501347285
6.12,27.5879873423127
6.3,27.588830221884
6.48,27.589678773329
6.66,27.5905329965393
6.84,27.5913928914118
7.02,27.5922584578487
7.2,27.5931296957576
7.38,27.5940066050509
7.56,27.5948891856469
7.74,27.5957774374686
7.92,27.5966713604446
8.1,27.5975709545086
8.28,27.5984762195995
8.46,27.5993871556617
8.64,27.6003037626447
8.82,27.6012260405032
9,27.6021539891972
9.18,27.6030876086921
9.36,27.6040268989583
9.54,27.6049718599718
9.72,27.6059224917135
9.9,27.6068787941697
10.08,27.6078407673321
10.26,27.6088084111975
10.44,27.6097817257678
10.62,27.6107607110507
10.8,27.6117453670585
10.98,27.6127356938091
11.16,27.6137316913257
11.34,27.6147333596367
11.52,27.6157406987757
11.7,27.6167537087816
11.88,27.6177723896985
12.06,27.6187967415758
12.24,27.6198267644683
12.42,27.6208624584358
12.6,27.6219038235435
12.78,27.6239411140197
12.96,27.627872610232
13.14,27.6318417624455
13.32,27.6358485699483
13.5,27.6398930320299
13.68,27.6439751479814
13.86,27.6480949170955
14.04,27.6522523386662
14.22,27.6564474119891
14.4,27.6606801363613
14.58,27.6649505110816
14.76,27.6692585354502
14.94,27.6736042087686
15.12,27.6779875303401
15.3,27.6824084994694
15.48,27.6868671154628
15.66,27.6913633776279
15.84,27.6958972852741
16.02,27.7004688377121
16.2,27.7050780342542
16.38,27.7097248742142
16.56,27.7144093569076
16.74,27.7191314816509
16.92,27.7238912477627
17.1,27.7286886545628
17.28,27.7335237013726
17.46,27.7383963875149
17.64,27.7433067123143
17.82,27.7482546750965
18,27.7532402751892
18.18,27.7582635119211
18.36,27.7633243846229
18.54,27.7684228926264
18.72,27.7735590352652
18.9,27.7787328118743
19.08,27.7839442217903
19.26,27.7891932643512
19.44,27.7944799388965
19.62,27.7998042447673
19.8,27.8051661813063
19.98,27.8105657478574
20.16,27.8160029437665
20.34,27.8214777683806
20.52,27.8269902210483
20.7,27.8325403011198
20.88,27.8381280079468
21.06,27.8437533408826
21.24,27.8494162992818
21.42,27.8551168825006
21.6,27.8608550898969
21.78,27.8666309208298
21.96,27.8724443746601
22.14,27.8782954507503
22.32,27.8841841484639
22.5,27.8901104671664
22.68,27.8960744062246
22.86,27.9020759650068
23.04,27.908115142883
23.22,27.9141919392244
23.4,27.9203063534041
23.58,27.9264583847963
23.76,27.9326480327771
23.94,27.9388752967239
24.12,27.9451401760157
24.3,27.9514426700328
24.48,27.9577827781573
24.66,27.9641604997728
24.84,27.9705758342641
25.02,27.977028781018
25.2,27.9835193394223
25.38,27.9900475088666
25.56,27.9966132887422
25.74,28.0032166784415
25.92,28.0098576773587
26.1,28.0165362848893
26.28,28.0232525004305
26.46,28.030006323381
26.64,28.036797753141
26.82,28.0436267891121
27,28.0504934306975
27.18,28.0573976773019
27.36,28.0643395283317
27.54,28.0713189831944
27.72,28.0783360412994
27.9,28.0853907020575
28.08,28.092482964881
28.26,28.0996128291836
28.44,28.1067802943806
28.62,28.113985359889
28.8,28.1212280251271
28.98,28.1285082895146
29.16,28.1358261524731
29.34,28.1431816134255
29.52,28.150574671796
29.7,28.1580053270107
29.88,28.165473578497
30.06,28.1729794256839
30.24,28.1805228680017
30.42,28.1881039048826
30.6,28.19572253576
30.78,28.203378760069
30.96,28.211072577246
31.14,28.2188039867291
31.32,28.2265729879579
31.5,28.2343795803736
31.68,28.2422237634185
31.86,28.2501055365369
32.04,28.2580248991745
32.22,28.2659818507782
32.4,28.2739763907968
32.58,28.2820085186805
32.76,28.2900782338809
32.94,28.2981855358513
33.12,28.3063304240463
33.3,28.3145128979223
33.48,28.3227329569368
33.66,28.3309906005492
33.84,28.3392858282204
34.02,28.3494324956073
34.2,28.3668648609553
34.38,28.384479841292
34.56,28.4022774970631
34.74,28.4202578891304
34.92,28.4384210787716
35.1,28.4567671276808
35.28,28.475296097968
35.46,28.4940080521594
35.64,28.5129030531972
35.82,28.5319811644397
36,28.5512424496613
36.18,28.5706869730526
36.36,28.5903147992202
36.54,28.6101259931869
36.72,28.6301206203915
36.9,28.6502987466887
37.08,28.6706604383498
37.26,28.6912057620617
37.44,28.7119347849278
37.62,28.7328475744671
37.8,28.7539441986152
37.98,28.7752247257237
38.16,28.7966892245599
38.34,28.8183377643076
38.52,28.8401704145667
38.7,28.8621872453529
38.88,28.8843883270983
39.06,28.9067737306509
39.24,28.9293435272748
39.42,28.9520977886503
39.6,28.9750365868739
39.78,28.9981599944579
39.96,29.0214680843308
40.14,29.0449609298374
40.32,29.0686386047383
40.5,29.0925011832104
40.68,29.1165487398466
40.86,29.140781349656
41.04,29.1651990880636
41.22,29.1898020309108
41.4,29.2145902544547
41.58,29.2395638353688
41.76,29.2647228507427
41.94,29.2900673780819
42.12,29.3155974953081
42.3,29.3413132807591
42.48,29.3672148131888
42.66,29.3933021717672
42.84,29.4195754360804
43.02,29.4460346861305
43.2,29.4726800023359
43.38,29.4995114655309
43.56,29.5265291569659
43.74,29.5537331583076
43.92,29.5811235516386
44.1,29.6087004194576
44.28,29.6364638446795
44.46,29.6644139106352
44.64,29.6925507010719
44.82,29.7208743001526
45,29.7493847924566
45.18,29.7780822629791
45.36,29.8069667971317
45.54,29.8360384807419
45.72,29.8652974000531
45.9,29.8947436417253
46.08,29.9243772928342
46.26,29.9541984408718
46.44,29.9842071737459
46.62,30.0144035797807
46.8,30.0447877477165
46.98,30.0753597667094
47.16,30.1142964533665
47.34,30.1702254434266
47.52,30.2262952446076
47.7,30.2825041150365
47.88,30.3388503517113
48.06,30.3953322905008
48.24,30.4519483061449
48.42,30.5086968122543
48.6,30.5655762613106
48.78,30.6225851446667
48.96,30.6797219925459
49.14,30.7369853740428
49.32,30.7943738971228
49.5,30.8518862086222
49.68,30.9095209942485
49.86,30.9672769785796
50.04,31.025152925065
50.22,31.0831476360246
50.4,31.1412599526494
50.58,31.1994887550015
50.76,31.2578329620137
50.94,31.3162915314898
51.12,31.3748634601047
51.3,31.4436833751183
51.48,31.5225145016772
51.66,31.6034965598519
51.84,31.6866354954036
52.02,31.7719376071545
52.2,31.8594095469877
52.38,31.949058319847
52.56,32.0408912837371
52.74,32.134916149724
52.92,32.2311409819339
53.1,32.3295741975544
53.28,32.4302245668337
53.46,32.5331012130811
53.64,32.6401757856924
53.82,32.7531253084572
54,32.870573081
54.18,32.9924934322555
54.36,33.1188627808103
54.54,33.2496596349035
54.72,33.3848645924262
54.9,33.524460340922
55.08,33.668431657586
55.26,33.8167654092664
55.44,33.9694505524628
55.62,34.1264781333274
55.8,34.2878412876646
55.98,34.5138600372384
56.16,34.8192953184904
56.34,35.1357317879725
56.52,35.4630245646358
56.7,35.8010514015481
56.88,36.1497126858943
57.06,36.5089314389757
57.24,36.8786533162105
57.42,37.2588466071336
57.6,37.6495022353967
57.78,38.0506337587682
57.96,38.4622773691333
58.14,38.6289433223909
58.32,37.9721020859109
58.5,37.3149082747237
58.68,36.65736968591
58.86,35.9994951006988
59.04,35.3412942844675
59.22,34.6827779867417
59.4,34.0239579411954
59.58,33.3648468656509
59.76,32.7054584620788
59.94,32.0458074165979
60.12,31.4298350176682
60.3,30.8382724031763
60.48,30.2497035068932
60.66,29.6641399167006
60.84,29.0815943286172
61.02,28.5020805467984
61.2,27.9256134835359
61.38,27.3522091592587
61.56,26.7818847025323
61.74,26.214658350059
61.92,25.6505494466775
62.1,26.4998965825598
62.28,27.3453106259667
62.46,28.1872502917014
62.64,29.0257564079958
62.82,29.8608704733652
63,30.6926346566086
63.18,30.7496822175282
63.36,30.2233145247493
63.54,29.6933770880885
63.72,29.1598811774177
63.9,28.6228395512146
64.08,28.0822664565624
64.26,27.5381776291497
64.44,26.990590293271
64.62,26.4395231618259
64.8,25.8849964363199
64.98,25.3270318068638
65.16,24.7773851908542
65.34,24.2302081217822
65.52,23.6843044641063
65.7,23.1396876970748
65.88,22.5963732916221
66.06,22.0543787103675
66.24,21.5137234076165
66.42,20.9744288293597
66.6,20.4365184132734
66.78,19.9000175887195
66.96,19.3649537767454
67.14,20.4558570120056
67.32,21.306539625838
67.5,22.146042660604
67.68,22.9740493871315
67.86,23.7902945463313
68.04,24.974532560132
68.22,24.4138253803313
68.4,23.848087670747
68.58,23.2773372756941
68.76,22.701596134609
68.94,22.1208902820498
69.12,21.5352498476957
69.3,20.9447090563474
69.48,20.3493062279272
69.66,19.7490837774785
69.84,19.1440882151665
70.02,18.5314528020219
70.2,17.8924471442007
70.38,17.2517531471131
70.56,16.6094167130817
70.74,15.9655111197606
70.92,15.3201370201352
71.1,14.6734224425225
71.28,14.0255227905711
71.46,13.3766208432606
71.64,12.7269267549027
71.82,12.0766780551401
72,11.4261396489478
72.18,12.4570044914905
72.36,12.8175694416504
72.54,13.1719808155987
72.72,13.520162995009
72.9,13.8620506684625
73.08,14.197588831448
73.26,14.5267327863625
73.44,14.8494481425102
73.62,15.1657108161036
73.8,15.4215952588645
73.98,15.6662135886279
74.16,15.9006816508572
74.34,16.124958169821
74.52,16.3390054524155
74.7,16.5427893881644
74.88,16.7362794492192
75.06,16.9194486903586
75.24,17.092273748989
75.42,17.2376845830086
75.6,17.3815047394269
75.78,17.5247150853976
75.96,17.667307735049
76.14,17.8092751350798
76.32,17.9506100647586
76.5,18.0913056359242
76.68,18.2313552929856
76.86,18.3707528129215
77.04,18.5094923052812
77.22,18.6475682121838
77.4,18.7849753083185
77.58,18.9217087009446
77.76,19.0577638298915
77.94,19.193136467559
78.12,19.3366758548173
78.3,19.489235391496
78.48,19.6432488567881
78.66,19.7987160942718
78.84,19.9556369520786
79.02,20.1140112828925
79.2,20.2738389439508
79.38,20.4351197970437
79.56,20.5978537085141
79.74,20.762040549258
79.92,20.9276801947244
80.1,21.0947725249151
80.28,21.263317424385
80.46,21.4333147822417
80.64,21.604764492146
80.82,21.7880311163345
81,22.0858031900186
81.18,22.3987242978082
81.36,22.7267960615014
81.54,23.0700204704129
81.72,23.428399881374
81.9,23.8019370187324
82.08,24.1906349743528
82.26,24.5944972076162
82.44,25.0135275454201
82.62,25.447730182179
82.8,25.8971096798235
82.98,26.3616709678014
83.16,26.3112108489754
83.34,25.6649456853826
83.52,25.0195510603787
83.7,24.3750723823266
83.88,23.7315625758534
84.06,23.0890820818502
84.24,22.4476988574722
84.42,21.8074883761388
84.6,21.1685336275336
84.78,20.5309251176039
84.96,19.8947608685618
85.14,19.3029532785784
85.32,18.7271729196585
85.5,18.1555254161904
85.68,17.5880917600377
85.86,17.0249690805336
86.04,16.4662706444814
86.22,15.9121258561538
86.4,15.3626802572938
86.58,14.8180955271136
86.76,14.2785494822959
86.94,13.7442360769926
87.12,14.7860410037294
87.3,15.5779076790909
87.48,16.3884637145119
87.66,17.217737257419
87.84,18.0657573817986
88.02,19.2955779631764
88.2,18.7818222882971
88.38,18.26557503845
88.56,17.7469005281103
88.74,17.225882925173
88.92,16.7026262509523
89.1,16.1772543801824
89.28,15.6499110410169
89.46,15.1207598150288
89.64,14.589984137211
89.82,14.0577872959757
90,13.524392433155
90.18,12.9989476013704
90.36,12.4776782221115
90.54,11.9607858472028
90.72,11.4485846754643
90.9,10.9415015527109
91.08,10.4400759717534
91.26,9.94496007239783
91.44,9.45691864144561
91.62,8.97682911269342
91.8,8.50568156693362
91.98,8.04457873195365
92.16,9.11913129531358
92.34,9.88154313812978
92.52,10.6503139962082
92.7,11.4208940513195
92.88,12.1899680604991
93.06,13.1687150480473
93.24,12.6267854788102
93.42,12.0827720709737
93.6,11.536848155004
93.78,10.9893906133273
93.96,10.4409798803297
94.14,9.89239994235726
94.32,9.34463833771577
94.5,8.79888615667131
94.68,8.25653804144946
94.86,7.71919218623617
95.04,7.18394359843267
95.22,6.64021377763766
95.4,6.11076313444755
95.58,5.60494158651604
95.76,5.13320932396708
95.94,4.70713680939546
96.12,4.33940477786634
96.3,4.04380423691551
96.48,3.83523646654927
96.66,3.72971301924451
96.84,3.74435571994863
97.02,3.69970117143191
97.2,3.64455629020339
97.38,3.62880682811442
97.56,3.64891716748495
97.74,3.70117751741766
97.92,3.78170391379791
98.1,3.8864382192938
98.28,4.01114812335616
98.46,4.15142714221853
98.64,4.30429876621198
98.82,4.46490447701501
99,4.62825209080494
99.18,4.79227201616592
99.36,4.95516065559831
99.54,5.11538040551847
99.72,5.27165965625893
99.9,5.42299279206826
100.08,5.56864019111118
100.26,5.69411998640884
100.44,5.81577113612565
100.62,5.93840129033604
100.8,6.0618746354579
100.98,6.18606316051922
101.16,6.31084665715829
101.34,6.43611271962354
101.52,6.56175674477374
101.7,6.68768193207772
101.88,6.81379928361465
102.06,6.94002760407385
102.24,7.06629350075489
102.42,7.19253138356752
102.6,7.31868346503176
102.78,7.44469976027777
102.96,7.57601212865441
103.14,7.72289662066536
103.32,7.87115320167854
103.5,8.02076914550722
103.68,8.17173225288124
103.86,8.324030851447
104.04,8.47765379576751
104.22,8.63259046732231
104.4,8.78883077450752
104.58,8.94636515263582
104.76,9.10518456393647
104.94,9.26528049755534
105.12,9.42664496955479
105.3,9.58927052291379
105.48,9.75315022752789
105.66,9.91827768020922
105.84,10.1748310813232
106.02,10.4710919738714
106.2,10.7812306385318
106.38,11.1052929286671
106.56,11.4433220545384
106.74,11.795358583306
106.92,12.1614404390284
107.1,12.5416029026632
107.28,12.9358786120664
107.46,13.3442975619929
107.64,13.7668871040964
107.82,14.203671946929
108,14.6546741559419
108.18,14.5294403983053
108.36,13.9062673860436
108.54,13.2869347112965
108.72,12.671818616226
108.9,12.0614733637167
109.08,11.4566312373757
109.26,10.8582025415327
109.44,10.2672756012399
109.62,9.68511676227215
109.8,9.11317039112689
109.98,8.55305887502387
110.16,8.04619913981829
110.34,7.56059031366657
110.52,7.09395342708592
110.7,6.64958278222786
110.88,6.23142916088745
111.06,5.84409982450278
111.24,5.49285851415539
111.42,5.18362545056995
111.6,4.92297733411451
111.78,4.71814734480029
111.96,4.57702514228188
112.14,5.0200923415707
112.32,5.45545953501261
112.5,5.98511174248712
112.68,6.59359592727307
112.86,7.26773758954775
113.04,8.18440428488584
113.22,7.74892496188697
113.4,7.32377088242404
113.58,6.91131449663861
113.76,6.51476132904087
113.94,6.13814997850998
114.12,5.78635211829375
114.3,5.46507249600898
114.48,5.18084893364107
114.66,4.94105232754445
114.84,4.75388664844218
115.02,4.62659140356733
115.2,4.55699349320252
115.38,4.55959691360282
115.56,4.62942835603661
115.74,4.76123907985164
115.92,4.94950491247505
116.1,5.18842624941333
116.28,5.47192805425236
116.46,5.79365985865738
116.64,6.14699576237302
116.82,6.52503443322329
117,6.92059910711155
117.18,5.85717427788314
117.36,5.28509350903071
117.54,4.81450105753956
117.72,4.46698020543479
117.9,4.26313355688964
118.08,4.23506688284105
118.26,4.18509868128517
118.44,4.21910652077194
118.62,4.33192883804367
118.8,4.51789296930753
118.98,4.77081515023537
119.16,5.08400051596403
119.34,5.45024310109494
119.52,5.86182583969455
119.7,6.31052056529389
119.88,6.78758801088903
120.06,7.29576882020906
120.24,7.8458509030337
120.42,8.41369506623556
120.6,8.99670648918153
120.78,9.59260142333872
120.96,10.1994071922753
121.14,10.8154621916595
121.32,11.4394158892605
121.5,12.0702288249481
121.68,12.7071726106925
121.86,13.3498299305645
122.04,13.0983817338273
122.22,12.7163903253623
122.4,12.3451704325569
122.58,11.9847282948994
122.76,11.6350705941835
122.94,11.296204454508
123.12,10.9681374422766
123.3,10.6508775661983
123.48,10.3444332772871
123.66,10.0712770915134
123.84,9.82584399011626
124.02,9.58978454139658
124.2,9.36308492629809
124.38,9.1457401173049
124.56,8.93775387844173
124.74,8.73913876527371
124.92,8.5499161249066
125.1,8.37011609598659
125.28,8.25095885200593
125.46,8.1404626962787
125.64,8.03172776966023
125.82,7.92475722793209
126,7.81955437920753
126.18,7.71612268393158
126.36,7.61446575488087
126.54,7.51458735716381
126.72,7.41649140822045
126.9,7.3201819778226
127.08,7.22566328807374
127.26,7.13293971340902
127.44,7.04201578059532
127.62,6.95289616873126
127.8,6.86558570924706
127.98,6.78008938590475
128.16,6.69641233479795
128.34,6.61455984435208
128.52,6.5345373553242
128.7,6.4563504608031
128.88,6.38000490620925
129.06,6.31262396692238
129.24,6.25451625627899
129.42,6.19731885475033
129.6,6.14101582013347
129.78,6.08559175269679
129.96,6.03103179517995
130.14,5.97732163279389
130.32,5.92444749322074
130.5,5.87239614661401
130.68,5.82115490559843
130.86,5.77071162527004
131.04,5.72105470319609
131.22,5.67217307941517
131.4,5.62405623643711
131.58,5.57669419924303
131.76,5.53007753528531
131.94,5.4841973544876
132.12,5.43904530924484
132.3,5.39461359442326
132.48,5.35089494736033
132.66,5.30788264786478
132.84,5.26604387595297
133.02,5.23409474713245
133.2,5.20226171529813
133.38,5.17054482162234
133.56,5.13894449954876
133.74,5.10746157479231
133.92,5.07609726533919
134.1,5.04485318144686
134.28,5.01373132564407
134.46,4.98273409273082
134.64,4.95186426977842
134.82,4.92112503612941
135,4.89051996339761
135.18,4.86005301546814
135.36,4.82972854849737
135.54,4.79955131091295
135.72,4.76952644341379
135.9,4.73965947897008
136.08,4.70995634282329
136.26,4.68042335248615
136.44,4.65106721774266
136.62,4.62189504064809
136.8,4.59291431552903
136.98,4.56413292898326
137.16,4.5355591598799
137.34,4.50774201440156
137.52,4.48634699900447
137.7,4.46514675316902
137.88,4.44413607099637
138.06,4.42330999049125
138.24,4.40266379356186
138.42,4.38219300601999
138.6,4.36189339758092
138.78,4.34176098186348
138.96,4.32179201639005
139.14,4.30198300258651
139.32,4.28233068578229
139.5,4.26283205521034
139.68,4.24348434400716
139.86,4.22428502921276
140.04,4.20523183177071
140.22,4.18632271652809
140.4,4.16755589223551
140.58,4.14892981154712
140.76,4.13044317102062
140.94,4.11209491111721
141.12,4.09388421620163
141.3,4.07581051454217
141.48,4.05787347831064
141.66,4.0400730235824
141.84,4.0231445491133
142.02,4.0120836998802
142.2,4.00103963761782
142.38,3.99001204319223
142.56,3.97900060164923
142.74,3.96800500221439
142.92,3.95702493829301
143.1,3.94606010747014
143.28,3.93511021151059
143.46,3.92417495635891
143.64,3.91325405213941
143.82,3.90234721315613
144,3.89145415789288
144.18,3.88057460901319
144.36,3.86970829336037
144.54,3.85885494195744
144.72,3.84801429000721
144.9,3.83718607689222
145.08,3.82637004617474
145.26,3.81556594559683
145.44,3.80477352708025
145.62,3.79399254672655
145.8,3.78322276481701
145.98,3.77246394581265
146.16,3.76171585835425
146.34,3.75097827526235
146.52,3.74025097353719
146.7,3.72953373435883
146.88,3.71882634308702
147.06,3.70812858926128
147.24,3.69744026660088
147.42,3.68676117300484
147.6,3.67609111055192
147.78,3.66542988550064
147.96,3.65477730828924
148.14,3.64413319353576
148.32,3.63349736003793
148.5,3.62286963077326
148.68,3.61224983289902
148.86,3.6016377977522
149.04,3.59103336084954
149.22,3.58043636188756
149.4,3.5698466447425
149.58,3.55926405747035
149.76,3.54868845230686
149.94,3.53811968566752
150.12,3.52755761814757
150.3,3.51700211452199
150.48,3.50645304374554
150.66,3.49591027895269
150.84,3.48648284632297
151.02,3.48218802427401
151.2,3.47788434585867
151.38,3.47357181514701
151.56,3.46925043635791
151.74,3.4649202138591
151.92,3.46058115216718
152.1,3.45623325594754
152.28,3.45187653001442
152.46,3.44751097933092
152.64,3.44313660900896
152.82,3.43875342430932
153,3.43436143064159
153.18,3.42996063356422
153.36,3.42555103878449
153.54,3.42113265215853
153.72,3.41670547969129
153.9,3.41226952753657
154.08,3.40782480199702
154.26,3.40337130952411
154.44,3.39890905671815
154.62,3.3944380503283
154.8,3.38995829725255
154.98,3.38546980453774
155.16,3.38097257937955
155.34,3.37646662912247
155.52,3.37195196125987
155.7,3.36742858343393
155.88,3.36289650343568
156.06,3.35835572920498
