"Distance [mm]","Mag_H [kA_per_m] - Freq='1MHz' Phase='0deg'"
0,22.42838974202
0.36,22.4412155061472
0.72,22.4542314093209
1.08,22.4674375079261
1.44,22.4808338634956
1.8,22.4944205427097
2.16,22.5081976173958
2.52,22.5221651645291
2.88,22.5363232662323
3.24,22.5506720097754
3.6,22.5652114875759
3.96,22.579941797199
4.32,22.5948630413571
4.68,22.6099753279102
5.04,22.6252787698658
5.4,22.640773485379
5.76,22.656459597752
6.12,22.6723372354349
6.48,22.6884065320251
6.84,22.7046676262673
7.2,22.7211206620541
7.56,22.7377657884252
7.92,22.754603159568
8.28,22.7716329348173
8.64,22.7888552786553
9,22.8062703607118
9.36,22.8238783557641
9.72,22.8416794437368
10.08,22.8596738097023
10.44,22.8778616438801
10.8,22.8962431416375
11.16,22.914818503489
11.52,22.9335879350969
11.88,22.9525516472707
12.24,22.9717098559675
12.6,22.9910627822919
12.96,23.0106106524959
13.32,23.030353697979
13.68,23.0502921552883
14.04,23.0704262661182
14.4,23.0907562773107
14.76,23.1112824408553
15.12,23.1320050138888
15.48,23.1529242586958
15.84,23.1740404427081
16.2,23.1953538385049
16.56,23.2168647238132
16.92,23.239647543097
17.28,23.2654416420587
17.64,23.2917586506088
18,23.3185991845463
18.36,23.3459638584546
18.72,23.3738532857015
19.08,23.4022680784398
19.44,23.4312088476062
19.8,23.4606762029223
20.16,23.4906707528941
20.52,23.521193104812
20.88,23.552243864751
21.24,23.5838236375707
21.6,23.6159330269151
21.96,23.6485726352126
22.32,23.6817430636763
22.68,23.7154449123038
23.04,23.749678779877
23.4,23.7844452639625
23.76,23.8197449609114
24.12,23.8555784658592
24.48,23.8919463727259
24.84,23.9288492742162
25.2,23.966287761819
25.56,24.0042624258081
25.92,24.0427738552414
26.28,24.0818226379615
26.64,24.1214093605956
27,24.1615346085553
27.36,24.2021989660365
27.72,24.2434030160202
28.08,24.2851473402711
28.44,24.3274325193392
28.8,24.3702591325583
29.16,24.4157956196573
29.52,24.475077361748
29.88,24.5351903617661
30.24,24.59612730781
30.6,24.6578810415452
30.96,24.7204445582045
31.32,24.7838110065877
31.68,24.8479736890616
32.04,24.9129260615603
32.4,24.9786617335849
32.76,25.0451744682036
33.12,25.1124581820517
33.48,25.1805069453316
33.84,25.2493149818128
34.2,25.318876668832
34.56,25.3891865372928
34.92,25.460239271666
35.28,25.5368809762918
35.64,25.6333691071794
36,25.7324557526081
36.36,25.8341547510823
36.72,25.938480073027
37.08,26.0454458207881
37.44,26.1550662286324
37.8,26.2673556627475
38.16,26.3823286212418
38.52,26.4999997341447
38.88,26.6203837634064
39.24,26.7434956028979
39.6,26.8693502784111
39.96,26.9979629476588
40.32,27.1293489002747
40.68,27.2635235578131
41.04,27.4005024737495
41.4,27.5464153069069
41.76,27.7135379213166
42.12,27.8878961332575
42.48,28.06947792459
42.84,28.258271172975
43.2,28.4542636518736
43.56,28.6574430305472
43.92,28.8677968740573
44.28,29.0853126432659
44.64,29.3099776948351
45,29.5417792812271
45.36,29.7807045507048
45.72,30.0267405473308
46.08,30.2798742109684
46.44,30.5970647454081
46.8,30.9462875708991
47.16,31.3135705372371
47.52,31.6988940366302
47.88,32.1022391251765
48.24,32.5235875228645
48.6,32.962921613573
48.96,33.420224445071
49.32,33.8954797290177
49.68,34.3886718409626
50.04,34.8997858203453
50.4,35.4288073704959
50.76,35.9757228586344
51.12,36.6193272751904
51.48,37.4632208865188
51.84,38.3198655058666
52.2,39.1884327587414
52.56,40.0686668794693
52.92,40.9608847111937
53.28,42.2281652817284
53.64,43.7131111670338
54,45.3138104314661
54.36,47.0301857084311
54.72,48.8621637054229
55.08,50.4691176284622
55.44,48.1876785367062
55.8,45.9184067261449
56.16,43.660330389929
56.52,41.4135066863845
56.88,39.1790217390138
57.24,36.958990636494
57.6,34.7565574326786
57.96,32.575895146596
58.32,30.4222057624508
58.68,28.3017202296225
59.04,26.221698462667
59.4,24.190429341315
59.76,22.2172307104736
60.12,20.3915491424753
60.48,18.71687094761
60.84,17.0832202743865
61.2,15.5902056016846
61.56,14.3195046302277
61.92,13.3348642825822
62.28,12.6821007031581
62.64,12.3890992582089
63,12.4658145358312
63.36,12.9042703459653
63.72,13.6785597203947
64.08,14.7448449127462
64.44,16.0413573984902
64.8,17.4883978749404
65.16,16.7235559681554
65.52,15.4937588219011
65.88,14.5250055608716
66.24,13.8471960394362
66.6,13.4740256917857
66.96,13.4029855319335
67.32,13.6153621537148
67.68,14.0729716611672
68.04,14.7754195742925
68.4,15.7172757389947
68.76,16.878843988097
69.12,18.2399602996499
69.48,19.7799927969318
69.84,21.4778417484481
70.2,22.4864969225143
70.56,20.9325438068762
70.92,19.4262394276916
71.28,18.0279435374272
71.64,16.7895805060765
72,15.7546393211597
72.36,14.9581735877237
72.72,14.4268015283423
73.08,14.1787059831156
73.44,14.223634409671
73.8,14.562898883162
74.16,15.1893760962693
74.52,16.0875073592
74.88,17.2332985996882
75.24,18.5459333788051
75.6,19.9717403342191
75.96,21.5048277203369
76.32,23.1269500023399
76.68,24.8218424906306
77.04,26.5752213408323
77.4,28.3747835537894
77.76,30.2102069755671
78.12,32.0731502974519
78.48,33.9572530559508
78.84,35.8581356327921
79.2,37.7733992549251
79.56,39.7026259945198
79.92,41.6473787689676
80.28,39.154703568427
80.64,37.0736150961555
81,35.064930707508
81.36,33.1301033919742
81.72,31.27078499683
82.08,29.4888262271378
82.44,27.7862766457461
82.8,26.1316178533525
83.16,24.4678676837629
83.52,22.802397606417
83.88,21.1514106978628
84.24,19.538805973023
84.6,17.9961783851948
84.96,16.5628188260499
85.32,16.6339580450308
85.68,17.9135436082929
86.04,19.3457011487372
86.4,20.9051098426574
86.76,22.5692958432662
87.12,24.3186322806951
87.48,26.1363392619947
87.84,28.0084838711344
88.2,29.9239801690027
88.56,31.8745891934071
88.92,33.854918959074
89.28,35.8624244576487
89.64,37.8974076576956
90,39.963017504698
90.36,42.1249548994304
90.72,44.3016741240467
91.08,46.491442511393
91.44,48.6926746185582
91.8,50.9039322268741
92.16,53.1239243419149
92.52,55.3515071934979
92.88,57.5856842356829
93.24,59.8256061467727
93.6,62.0705708293125
93.96,64.3200234100904
94.32,66.5735562401376
94.68,68.8309088947274
95.04,69.7674436232834
95.4,68.0084058687523
95.76,66.3052503934446
96.12,64.656331667677
96.48,63.0610728237118
96.84,61.5199656557588
97.2,60.3169414944477
97.56,59.2645002959258
97.92,58.2933096283364
98.28,57.4034112157873
98.64,56.5949529948998
99,55.8802904556944
99.36,55.2161784151302
99.72,54.5742868829047
100.08,53.9546229889966
100.44,53.3572064040202
100.8,52.7820693392256
101.16,52.2292565464979
101.52,51.6988253183583
101.88,51.190845487963
102.24,50.7053994291041
102.6,50.2425820562092
102.96,49.8540259616363
103.32,49.4832711957957
103.68,49.1205875260079
104.04,48.7659794980521
104.4,48.419451705031
104.76,48.0810087873702
105.12,47.750655432819
105.48,47.4283963764498
105.84,47.1142364006581
106.2,46.8081803351627
106.56,46.5102330570059
106.92,46.220399490553
107.28,45.9386846074926
107.64,45.665093426837
108,45.4144185639992
108.36,45.1881348101099
108.72,44.9634243477506
109.08,44.7402882158138
109.44,44.5187274576962
109.8,44.2987431212991
110.16,44.0803362590284
110.52,43.8635079277947
110.88,43.6482591890129
111.24,43.4345911086025
111.6,43.2225047569873
111.96,43.012001209096
112.32,42.8030815443616
112.68,42.5957468467217
113.04,42.3899982046183
113.4,42.1858367109982
113.76,41.9832634633124
114.12,41.7822795635166
114.48,41.582886118071
114.84,41.3850842379405
115.2,41.188875038594
115.56,40.9942596400056
115.92,40.8012391666535
116.28,40.6278913720064
116.64,40.4766854466075
117,40.3272610922289
117.36,40.1796185527214
117.72,40.0337580529951
118.08,39.8896797990194
118.44,39.7473839778229
118.8,39.6068707574937
119.16,39.4681402871791
119.52,39.3311926970858
119.88,39.1960280984798
120.24,39.0626465836862
120.6,38.9310482260899
120.96,38.8012330801347
121.32,38.6732011813238
121.68,38.54695254622
122.04,38.4224871724449
122.4,38.2998050386799
122.76,38.1789061046654
123.12,38.0597903112015
123.48,37.942457580147
123.84,37.8269078144208
124.2,37.7131408980005
124.56,37.6011566959233
124.92,37.4909550542855
125.28,37.382535800243
125.64,37.275898742011
126,37.1710436688636
126.36,37.0679703511347
126.72,36.9666785402175
127.08,36.8671679685642
127.44,36.7694383496865
127.8,36.6734893781554
128.16,36.5793207296013
128.52,36.4869320607137
128.88,36.4000071312857
129.24,36.3287085189983
129.6,36.2582857614473
129.96,36.1887342271733
130.32,36.1200493828586
130.68,36.0522267933268
131.04,35.9852621215433
131.4,35.9191511286147
131.76,35.8538896737892
132.12,35.7894737144564
132.48,35.7258993061475
132.84,35.6631626025352
133.2,35.6012598554335
133.56,35.5401874147981
133.92,35.4799417287262
134.28,35.4205193434561
134.64,35.3619169033682
135,35.3041311509838
135.36,35.247158926966
135.72,35.1909971701195
136.08,35.1356429173901
136.44,35.0810933038654
136.8,35.0321615349858
137.16,34.9976413550839
137.52,34.9636676218327
137.88,34.9302412297572
138.24,34.8973631001156
138.6,34.8650341808997
138.96,34.8332554468348
139.32,34.8020278993796
139.68,34.7713525667262
140.04,34.7412305038005
140.4,34.7116627922616
140.76,34.6826505405022
141.12,34.6541948836486
141.48,34.6262969835602
141.84,34.5989580288303
142.2,34.5721792347855
142.56,34.5459618434858
142.92,34.520307123725
143.28,34.49521637103
143.64,34.4706909076614
144,34.4467320826133
144.36,34.4233412716131
144.72,34.4024616315653
145.08,34.3860984112995
145.44,34.369865177471
145.8,34.3537616396882
146.16,34.3377875122533
146.52,34.3219425141629
146.88,34.3062263691072
147.24,34.2906388054706
147.6,34.2751795563315
147.96,34.2598483594622
148.32,34.2446449573289
148.68,34.229569097092
149.04,34.2146205306058
149.4,34.1997990144186
149.76,34.1851043097728
150.12,34.1705361826044
150.48,34.1560944035439
150.84,34.1417787479154
151.2,34.1275889957374
151.56,34.1135249317218
151.92,34.099586345275
152.28,34.0857730304972
152.64,34.0720847861827
153,34.0585214158196
153.36,34.04508272759
153.72,34.0317685343703
154.08,34.0185786537306
154.44,34.0055129079349
154.8,33.9925711239416
155.16,33.9797531334027
155.52,33.9670587726643
155.88,33.9544878827667
156.24,33.9420403094438
156.6,33.9297159031239
156.96,33.917514518929
157.32,33.9054360166752
157.68,33.8934802608727
158.04,33.8816471207254
158.4,33.8699364701314
158.76,33.8583481876827
159.12,33.8468821566656
159.48,33.8355382650599
159.84,33.8243164055397
160.2,33.8132164754729
160.56,33.8022383769218
160.92,33.7913820166421
161.28,33.7806473060839
161.64,33.7700341613912
162,33.759542503402
162.36,33.7491722576482
162.72,33.7389233543557
163.08,33.7287957284446
163.44,33.7187893195288
163.8,33.7136407194143
164.16,33.7127481991052
164.52,33.7118765397806
164.88,33.7110257392782
165.24,33.7101957954613
165.6,33.7093867062182
165.96,33.7085984694626
166.32,33.7078310831336
166.68,33.7070845451952
167.04,33.7063588536369
167.4,33.7056540064735
167.76,33.704970001745
168.12,33.7043068375167
168.48,33.703664511879
168.84,33.7030430229479
169.2,33.7024423688644
169.56,33.7018625477947
169.92,33.7013035579306
170.28,33.7007653974889
170.64,33.7002480647117
171,33.6997515578664
171.36,33.6992758752457
171.72,33.6988210151676
172.08,33.6983869759752
172.44,33.6979737560369
172.8,33.6975813537467
173.16,33.6972097675234
173.52,33.6968589958112
173.88,33.6965290370798
174.24,33.696219889824
174.6,33.6959315525637
174.96,33.6956640238444
175.32,33.6954173022366
175.68,33.6951913863363
176.04,33.6949862747645
176.4,33.6948019661675
176.76,33.6946384592173
177.12,33.6944957526105
177.48,33.6943738450694
177.84,33.6942727353416
178.2,33.6941924221996
178.56,33.6941329044416
178.92,33.6940941808908
179.28,33.6940762503957
179.64,33.69407911183
180,33.6941027640929
180.36,33.6941472061087
180.72,33.694212436827
181.08,33.6942984552227
181.44,33.6944052602958
181.8,33.6945328510719
182.16,33.6946812266014
182.52,33.6948503859603
182.88,33.69504032825
183.24,33.6952510525966
183.6,33.6954825581522
183.96,33.6957348440936
184.32,33.696007909623
184.68,33.6963017539681
185.04,33.6966163763815
185.4,33.6969517761414
185.76,33.6973079525511
186.12,33.6976849049391
186.48,33.6980826326594
186.84,33.698501135091
187.2,33.6989404116383
187.56,33.699400461731
187.92,33.699881284824
188.28,33.7003828803975
188.64,33.7009052479569
189,33.701448387033
189.36,33.7020122971818
189.72,33.7025969779845
190.08,33.7032024290476
190.44,33.7038286500029
190.8,33.7044756405075
191.16,33.7051434002437
191.52,33.705831928919
191.88,33.7065412262663
192.24,33.7072712920438
192.6,33.7080221260349
192.96,33.708793728048
193.32,33.7095860979173
193.68,33.7103992355018
194.04,33.711233140686
194.4,33.7120878133797
194.76,33.7129632535178
195.12,33.7138594610605
195.48,33.7147764359935
195.84,33.7157141783274
196.2,33.7166726880983
196.56,33.721945899223
196.92,33.7321029808436
197.28,33.7423411963783
197.64,33.7526605506968
198,33.763061048643
198.36,33.7735426950349
198.72,33.7841054946644
199.08,33.7947494522979
199.44,33.8054745726755
199.8,33.8162808605117
200.16,33.8271683204949
200.52,33.8381369572876
200.88,33.8491867755266
201.24,33.8603177798227
201.6,33.8715299747607
201.96,33.8828233648996
202.32,33.8941979547724
202.68,33.9056537488865
203.04,33.9171907517231
203.4,33.9288089677375
203.76,33.9405084013593
204.12,33.9522890569921
204.48,33.9641509390135
204.84,33.9760940517754
205.2,33.9881183996036
205.56,34.0002239867983
205.92,34.0124108176334
206.28,34.0246788963572
206.64,34.037028227192
207,34.0494588143343
207.36,34.0619706619545
207.72,34.0745637741972
208.08,34.0872381551813
208.44,34.0999938089994
208.8,34.1128307397186
209.16,34.1257489513797
209.52,34.1387484479981
209.88,34.151829233563
210.24,34.1649913120375
210.6,34.1782346873593
210.96,34.1915593634398
211.32,34.2049653441646
211.68,34.2184526333936
212.04,34.2320212349604
212.4,34.2456711526732
212.76,34.259402390314
213.12,34.2732149516389
213.48,34.2871088403781
213.84,34.3010840602359
214.2,34.315140614891
214.56,34.3292785079958
214.92,34.3434977431769
215.28,34.3577983240352
215.64,34.3818832214854
216,34.4106559224256
216.36,34.4399027102677
216.72,34.4696226714132
217.08,34.4998149055784
217.44,34.5304785257951
217.8,34.5616126584104
218.16,34.5932164430862
218.52,34.6252890327998
218.88,34.6578295938439
219.24,34.6908373058259
219.6,34.7243113616689
219.96,34.7582509676107
220.32,34.7926553432047
220.68,34.8275237213193
221.04,34.862855348138
221.4,34.8986494831597
221.76,34.9349053991983
222.12,34.9716223823831
222.48,35.0087997321582
222.84,35.0464367612833
223.2,35.0845327958331
223.56,35.1317407219606
223.92,35.1822545883207
224.28,35.2333975459293
224.64,35.285172965634
225,35.3375843435802
225.36,35.3906353012113
225.72,35.4443295852682
226.08,35.4986710677901
226.44,35.5536637461135
226.8,35.609311742873
227.16,35.6656193060011
227.52,35.7225908087279
227.88,35.7802307495815
228.24,35.8385437523877
228.6,35.8975345662703
228.96,35.9572080656506
229.32,36.0175692502481
229.68,36.0786232450799
230.04,36.1403753004609
230.4,36.2028307920039
230.76,36.2659952206197
231.12,36.3298742125165
231.48,36.4212992967499
231.84,36.5196937707352
232.2,36.6196394077295
232.56,36.7211364967669
232.92,36.8241853109617
233.28,36.9287861075079
233.64,37.0349391276798
234,37.1426445968317
234.36,37.2519027243979
234.72,37.3627137038927
235.08,37.4750777129105
235.44,37.5889949131256
235.8,37.7044654502925
236.16,37.8214894542456
236.52,37.9400670388994
236.88,38.0601983022484
237.24,38.1818833263671
237.6,38.3051221774102
237.96,38.4299149056122
238.32,38.5562615452877
238.68,38.6841621148314
239.04,38.8136166167181
239.4,38.9446250375023
239.76,39.0771873478189
240.12,39.2113035023827
240.48,39.3469734399884
240.84,39.484197083511
241.2,39.6229743399053
241.56,39.7633051002061
241.92,39.9051892395286
242.28,40.0486266170675
242.64,40.1936170760979
243,40.3401604439748
243.36,40.4882565321334
243.72,40.6379051360885
244.08,40.8077622791107
244.44,40.9958680633097
244.8,41.1859021911712
245.16,41.3778636011139
245.52,41.5717512333585
245.88,41.7675640299285
246.24,41.9653009346501
246.6,42.1649608931515
246.96,42.3665428528636
247.32,42.5700457630198
247.68,42.7754685746559
248.04,42.9828102406101
248.4,43.1920697155231
248.76,43.4032459558382
249.12,43.6163379198012
249.48,43.8313445674599
249.84,44.048264860665
250.2,44.2670977630697
250.56,44.4878422401295
250.92,44.7104972591023
251.28,44.9350617890487
251.64,45.1615348008314
252,45.3899152671159
252.36,45.6542934069627
252.72,45.9477815646506
253.08,46.2472408178776
253.44,46.552683134597
253.8,46.8641209778277
254.16,47.1815673056528
254.52,47.5050355712199
254.88,47.8345397227419
255.24,48.1700942034959
255.6,48.5117139518237
255.96,48.8594144011321
256.32,49.2132114798923
256.68,49.5731216116405
257.04,49.9391617149773
257.4,50.3205889999963
257.76,50.7605246640777
258.12,51.2166115203201
258.48,51.6887435833162
258.84,52.1768312635972
259.2,52.680801367633
259.56,53.2005970978322
259.92,53.7361780525424
260.28,54.2875202260496
260.64,54.8546160085789
261,55.4374741862938
261.36,56.2569807210539
261.72,57.3213837702436
262.08,58.4423693152982
262.44,59.6199261241759
262.8,60.8540489624864
263.16,62.1447385934917
263.52,63.4920017781063
263.88,64.8958512748959
264.24,66.3563058400788
264.6,67.8733902275252
264.96,69.4471351887571
265.32,68.9266230790342
265.68,66.653693777069
266.04,64.3857479667349
266.4,62.1230641746922
266.76,59.8660799550328
267.12,57.6153918892839
267.48,55.3717555864055
267.84,53.1360856827909
268.2,50.9094558422668
268.56,48.6930987560937
268.92,46.4884061429654
269.28,44.2969287490096
269.64,42.1203763477861
270,39.9606177402896
270.36,37.8957644330743
270.72,35.8617702782843
271.08,33.8554975619975
271.44,31.8767483848532
271.8,29.9282646620531
272.16,28.0157281233609
272.52,26.1477603131025
272.88,24.3359225901647
273.24,22.5947161279972
273.6,20.9415819146114
273.96,19.3969007525808
274.32,17.9839932590402
274.68,16.7291198656869
275.04,16.6684687788803
275.4,17.9057807585001
275.76,19.325801205495
276.12,20.8817480057115
276.48,22.5355596134483
276.84,24.2578950514564
277.2,26.0281339109383
277.56,27.79187868306
277.92,29.4215067420847
278.28,31.1537378782783
278.64,32.9780814477102
279,34.885713421467
279.36,36.8694763856512
279.72,38.9238795413817
280.08,41.7129563183952
280.44,39.7562952393991
280.8,37.816169273397
281.16,35.8910315731804
281.52,33.9813251859435
281.88,32.0894830532815
282.24,30.2199280111927
282.6,28.3790727900776
282.96,26.5753200147387
283.32,24.8190622043808
283.68,23.1226817726103
284.04,21.5005510274366
284.4,19.9690321712709
284.76,18.546477300927
285.12,17.236681474129
285.48,16.0899216167733
285.84,15.1908460544292
286.2,14.5634831341069
286.56,14.2234173514415
286.92,14.1777893506936
287.28,14.4252959247492
287.64,14.9561900151192
288,15.75228071194
288.36,16.7869332539733
288.72,18.025069028606
289.08,19.4231655718502
289.44,20.929256568343
289.8,22.4829318513474
290.16,21.476113470871
290.52,19.779587140765
290.88,18.2406773803071
291.24,16.880402910286
291.6,15.7193135948272
291.96,14.7774904413928
292.32,14.0745456007817
292.68,13.6167259288255
293.04,13.4047190379468
293.4,13.4759080721852
293.76,13.8490097178174
294.12,14.5265550983966
294.48,15.4948897747522
294.84,16.7241737449909
295.2,17.487021745321
295.56,16.0395148144766
295.92,14.742714037237
296.28,13.6763039243359
296.64,12.9020341655695
297,12.4637196297965
297.36,12.3872403649375
297.72,12.6805415979759
298.08,13.3336337349571
298.44,14.318592360989
298.8,15.5895582402416
299.16,17.0827373159473
299.52,18.7164007104012
299.88,20.3908847249603
300.24,22.2169740464598
300.6,24.1910040525153
300.96,26.2231168652264
301.32,28.3039602226996
301.68,30.4252148641327
302.04,32.579594529815
302.4,34.7608459611287
302.76,36.9637489005466
303.12,39.1841160916331
303.48,41.4187932790447
303.84,43.665659208529
304.2,45.9236256269263
304.56,48.1926372821678
304.92,50.4736719232762
305.28,48.9219508772299
305.64,46.9632260265346
306,45.1466254472675
306.36,43.4961622583432
306.72,42.2350040548839
307.08,41.0825099033042
307.44,40.0387416337536
307.8,39.1287315999323
308.16,38.2783770390562
308.52,37.4117883377888
