"Distance [mm]","Mag_H [kA_per_meter] - Freq='1MHz' Phase='0deg'"
0,0.0433967683059894
0.3,0.0453283183080193
0.6,0.047364994640745
0.9,0.0495071705572846
1.2,0.0517552325779445
1.5,0.0541095804902187
1.8,0.0565706273487882
2.1,0.0591387994755227
2.4,0.0618145364594789
2.7,0.0645982911569012
3,0.0674905296912219
3.3,0.0704917314530604
3.6,0.0736023891002242
3.9,0.0768230085577083
4.2,0.0801541090176953
4.5,0.0835962229395559
4.8,0.0871498960498471
5.1,0.0911516485451124
5.4,0.0954957447302396
5.7,0.0998921331962636
6,0.104339655944708
6.3,0.108837156035865
6.6,0.113383477588797
6.9,0.117977465781333
7.2,0.122617966850073
7.5,0.127303828090385
7.8,0.132033897856407
8.1,0.136807025561043
8.4,0.141622061675969
8.7,0.146477857731628
9,0.151373266317232
9.3,0.156307141080764
9.6,0.161278336728973
9.9,0.166285709027378
10.2,0.171328114800268
10.5,0.176404411930698
10.8,0.181513459360496
11.1,0.186654117090255
11.4,0.191825246179338
11.7,0.197025708745879
12,0.202254367966778
12.3,0.207510088077706
12.6,0.2127917343731
12.9,0.218098173206171
13.2,0.223428271988893
13.5,0.228780899192013
13.8,0.234154924345045
14.1,0.239549218036271
14.4,0.244962651912745
14.7,0.250394098680289
15,0.25584243210349
15.3,0.261306527005708
15.6,0.266785259269072
15.9,0.272277505834477
16.2,0.277782144701589
16.5,0.283298054928841
16.8,0.293410688255407
17.1,0.306752724783838
17.4,0.320650283987407
17.7,0.335088642079322
18,0.350053518778155
18.3,0.365531077307851
18.6,0.381507924397705
18.9,0.397971110282387
19.2,0.414908128701919
19.5,0.432306916901691
19.8,0.450155855632458
20.1,0.46844376915033
20.4,0.487159925216794
20.7,0.506294035098683
21,0.525836253568202
21.3,0.545777178902924
21.6,0.566107852885769
21.9,0.586819760805039
22.2,0.609000409721556
22.5,0.631568058313909
22.8,0.654379329302169
23.1,0.677435208493009
23.4,0.700736795698102
23.7,0.724285304734112
24,0.748082063422695
24.3,0.772128513590502
24.6,0.796426211069172
24.9,0.820976825695337
25.2,0.845782141310627
25.5,0.87084405576166
25.8,0.896164580900049
26.1,0.921745842582396
26.4,0.947590080670301
26.7,0.973699649030351
27,1.00007701553413
27.3,1.02672476205821
27.6,1.05895444092139
27.9,1.10770155937059
28.2,1.15735602684896
28.5,1.2079059221097
28.8,1.25933956042614
29.1,1.31164549359175
29.4,1.36481250992016
29.7,1.4188296342451
30,1.47368612792047
30.3,1.52937148882029
30.6,1.58587545133873
30.9,1.64318798639009
31.2,1.70129930140881
31.5,1.76019984034948
31.8,1.81988028368681
32.1,1.88033154841566
32.4,1.94583343592612
32.7,2.01213707316006
33,2.07921505123291
33.3,2.14707057282563
33.6,2.21570708185562
33.9,2.28512826347665
34.2,2.3553380440789
34.5,2.42634059128893
34.8,2.49814031396971
35.1,2.57074186222059
35.4,2.64415012737734
35.7,2.71837024201208
36,2.79340757993337
36.3,2.86926775618614
36.6,2.94595662705173
36.9,3.0309670344324
37.2,3.17736122723549
37.5,3.32591171217577
37.8,3.47659680208497
38.1,3.62939488229054
38.4,3.78428441061573
38.7,3.94124391737954
39,4.10025200539673
39.3,4.26128734997787
39.6,4.42432869892926
39.9,4.58935487255298
40.2,4.7563447636469
40.5,4.92527733750459
40.8,5.09613163191549
41.1,5.26535938761083
41.4,5.43675782222944
41.7,5.61112114776085
42,5.78858537522117
42.3,5.96929913902482
42.6,6.15342369698443
42.9,6.34796463175564
43.2,6.57030971398286
43.5,6.82056366374324
43.8,7.09882193816997
44.1,7.40517858695458
44.4,7.73972625234702
44.7,8.10255616915561
45,8.49375816474702
45.3,8.91342065904635
45.6,9.36163066453702
45.9,9.83847378626085
46.2,10.3440342218181
46.5,10.8783947613673
46.8,11.4416367876256
47.1,12.033840275868
47.4,12.6550837939285
47.7,13.3054445021992
48,13.9849981536296
48.3,14.0409385222834
48.6,13.2174323147302
48.9,12.4149537921958
49.2,11.6362926618753
49.5,10.885627435841
49.8,10.1685254310422
50.1,9.49194276930565
50.4,8.86422437733514
50.7,8.29510398671156
51,7.79570413389313
51.3,7.37853616021513
51.6,7.05750021189009
51.9,6.84788524000769
52.2,7.54279763715669
52.5,8.50494148049003
52.8,9.75608349079008
53.1,11.0250629741836
53.4,10.5051813096898
53.7,10.0034946443693
54,9.52989569167421
54.3,9.09369212906513
54.6,8.70360659801108
54.9,8.36777670398956
55.2,7.93706279438139
55.5,7.76722928171213
55.8,7.6517775280583
56.1,7.40951739965335
56.4,7.45797487161791
56.7,7.76226175616151
57,8.23606087525322
57.3,7.80223850948254
57.6,8.20685717898498
57.9,9.13171768814211
58.2,9.65054316419532
58.5,9.26956051997791
58.8,8.92950176265745
59.1,8.63798091200257
59.4,8.40133231148926
59.7,8.22461062830075
60,8.1115908533277
60.3,8.06476830116806
60.6,8.08535861012711
60.9,8.17329774221745
61.2,8.32724198315905
61.5,8.54456794237912
61.8,8.82137255301233
62.1,8.55280110219011
62.4,8.15031519076425
62.7,8.24227344009795
63,8.70943026893239
63.3,8.53415804835875
63.6,8.34466359614708
63.9,8.19324979630299
64.2,8.08823452531463
64.5,8.03835671217352
64.8,8.08484771986469
65.1,8.17388625051414
65.4,8.30134719474186
65.7,8.49381832780455
66,8.74447657402258
66.3,9.04687629313078
66.6,9.3945511373748
66.9,9.78101405151115
67.2,9.14143173105643
67.5,8.30245325215327
67.8,7.8391784264101
68.1,8.19099253406872
68.4,7.85098305712205
68.7,7.62167648622846
69,7.52029412649015
69.3,7.6255737986415
69.6,7.83840790653687
69.9,8.15750271844962
70.2,8.52372462179101
70.5,8.97859391531509
70.8,9.42404981489319
71.1,9.88043829433264
71.4,10.3488015067009
71.7,10.8252688484467
72,11.3028603054395
72.3,9.77725152449546
72.6,8.49604188243584
72.9,7.39385842893931
73.2,6.92499997410808
73.5,7.19260250925244
73.8,7.56368271172309
74.1,8.0265498181753
74.4,8.5704941583694
74.7,9.1857871551706
75,9.86368132454925
75.3,10.5964102755806
75.6,11.3771887104449
75.9,12.2002124244275
76.2,13.0606583059187
76.5,13.9546843364137
76.8,14.879429590513
77.1,14.0203822619838
77.4,13.2634456148263
77.7,12.5473795649965
78,11.8717204125301
78.3,11.2360281208469
78.6,10.6398863167503
78.9,10.0829022904272
79.2,9.56470699544869
79.5,9.08495504876911
79.8,8.64332473072669
80.1,8.23951798504353
80.4,7.87326041882521
80.7,7.54430130256117
81,7.25241357012451
81.3,6.99739381877206
81.6,6.77906230914438
81.9,6.59726296526575
82.2,6.407481014379
82.5,6.21956717312367
82.8,6.03395549176113
83.1,5.85060921663939
83.4,5.66949313524479
83.7,5.49057357620199
84,5.32385737312148
84.3,5.1671823242683
84.6,5.01224221118662
84.9,4.8590140627896
85.2,4.70747603382119
85.5,4.55760740485611
85.8,4.40938858229988
86.1,4.26280109838878
86.4,4.11782761118989
86.7,3.97445190460107
87,3.83265888835096
87.3,3.69243459799897
87.6,3.55376619493531
87.9,3.41664196638098
88.2,3.28105132538772
88.5,3.14698481083811
88.8,3.01443408744546
89.1,2.8833919457539
89.4,2.75385230213831
89.7,2.6258101988044
90,2.54163205048052
90.3,2.47505387117977
90.6,2.40904905428301
90.9,2.34363917537032
91.2,2.27884590853911
91.5,2.214691026404
91.8,2.15119640009691
92.1,2.08838399926703
92.4,2.02627589208081
92.7,1.96489424522197
93,1.9042613238915
93.3,1.84439949180768
93.6,1.78533121120602
93.9,1.72707904283934
94.2,1.67325305859562
94.5,1.62046629506838
94.8,1.5682191767735
95.1,1.51652186238048
95.4,1.46538691308107
95.7,1.41482929258928
96,1.36486636714135
96.3,1.31551790549583
96.6,1.26680607893348
96.9,1.21875546125732
97.2,1.17139302879265
97.5,1.124748160387
97.8,1.07885263741017
98.1,1.03374064375423
98.4,1.00529912576536
98.7,0.98087754223332
99,0.956826104299138
99.3,0.933147625199515
99.6,0.909845219422417
99.9,0.886922302707064
100.2,0.864382592043935
100.5,0.842230105674777
100.8,0.820469163092594
101.1,0.799104385041649
101.4,0.778140693517468
101.7,0.757583311766835
102,0.737459854708663
102.3,0.717719112091145
102.6,0.698296924402772
102.9,0.679192932592801
103.2,0.660406771094621
103.5,0.641938067825768
103.8,0.623786444187923
104.1,0.60595151506691
104.4,0.588432888832695
104.7,0.571230167339392
105,0.554342945925253
105.3,0.537770813412679
105.6,0.52151335210821
105.9,0.505570137802531
106.2,0.489940739770475
106.5,0.47462472077101
106.8,0.459621637047258
107.1,0.444931038326475
107.4,0.430552467820066
107.7,0.41648546222358
108,0.402729551716706
108.3,0.389284259963281
108.6,0.376149104111282
108.9,0.363323594792831
109.2,0.350807236124195
109.5,0.338599525705782
109.8,0.326699954622146
110.1,0.315108007441982
110.4,0.303823162218133
110.7,0.292844890487581
111,0.282172657271454
111.3,0.271805921075023
111.6,0.261744133887704
111.9,0.251986741183053
112.2,0.242533181918776
112.5,0.233382888536714
112.8,0.224535286962861
113.1,0.215989796607348
113.4,0.20774583036445
113.7,0.199802794612591
114,0.192160089214332
114.3,0.184817107516382
114.6,0.177773236349592
114.9,0.171027856028957
115.2,0.164580340353615
115.5,0.158430056606849
115.8,0.152576365556084
116.1,0.14701862145289
116.4,0.14175617203298
116.7,0.136788358516211
117,0.13216402265129
117.3,0.127872951773686
117.6,0.123632126976105
117.9,0.119439344011543
118.2,0.115292455845198
118.5,0.111189372654464
118.8,0.107128061828938
119.1,0.103106547970415
119.4,0.0991229128928899
119.7,0.0951752956225562
120,0.0912618923978083
120.3,0.0873809566692397
120.6,0.0846855648632945
120.9,0.0834293187871875
121.2,0.0821754737603967
121.5,0.080923961411764
121.8,0.0796747145067223
122.1,0.0784276669472971
122.4,0.0771827537721039
122.7,0.0759399111563508
123,0.0746990764118365
123.3,0.0734601879869518
123.6,0.0722231854666782
123.9,0.0709880095725893
124.2,0.0697546021628499
124.5,0.0685229062322157
124.8,0.0672928659120349
125.1,0.0660644264702462
125.4,0.0648375343113803
125.7,0.0636121369765587
126,0.0623881831434951
126.3,0.0611656226264939
126.6,0.0599444063764516
126.9,0.0587244864808556
127.2,0.057505816163785
127.5,0.0562883497859102
127.8,0.055072042844493
128.1,0.0538568519733869
128.4,0.0526427349430364
128.7,0.0514296506604779
129,0.0502175591693389
129.3,0.0490064216498384
129.6,0.0477962004187868
129.9,0.0465868589295861
130.2,0.0453783617722295
130.5,0.0441706746733016
130.8,0.0429637644959789
131.1,0.0417575992400286
131.4,0.0405521480418099
131.7,0.0393473811742733
132,0.0381432700469605
132.3,0.0369397872060049
132.6,0.0357369063341314
132.9,0.0345346022506557
133.2,0.0333328509114858
133.5,0.0321316294091204
133.8,0.03093091597265
134.1,0.0297306899677567
134.4,0.0285309318967134
134.7,0.0273316233983852
135,0.0261327472482279
135.3,0.0249342873582892
135.6,0.0237362287772083
135.9,0.0225385576902152
136.2,0.0213412614191321
136.5,0.0201443284223721
136.8,0.01894774829494
137.1,0.017751511768432
137.4,0.0169043347784257
137.7,0.0162164938723612
138,0.0156008588554425
138.3,0.0150602651265768
138.6,0.0145975941589891
138.9,0.0142157735002214
139.2,0.013917776772133
139.5,0.0137066236709008
139.8,0.0135853799670188
140.1,0.0135571575052983
140.4,0.0136251142048679
140.7,0.0137924540591735
141,0.0140624271359785
141.3,0.0142212285136149
141.6,0.0141552077934696
141.9,0.0140979602447811
142.2,0.0140477170444415
142.5,0.0140026584160642
142.8,0.0139609136299846
143.1,0.0139205610032598
143.4,0.0138873979919598
143.7,0.0138660046479827
144,0.0138503343673955
144.3,0.0138403585927484
144.6,0.013836048901137
144.9,0.0138373770042029
145.2,0.0138443147481332
145.5,0.0138568341136609
145.8,0.0138749072160645
146.1,0.0138985063051685
146.4,0.0139276037653428
146.7,0.0139621721155034
147,0.0140021840091117
147.3,0.0140476122341748
147.6,0.0140984297132459
147.9,0.0141546095034236
148.2,0.0142161247963522
148.5,0.0142829489182219
148.8,0.0143550553297685
149.1,0.0144324176262736
149.4,0.0145150095375644
149.7,0.014602804928014
150,0.0146957777965411
150.3,0.01479390227661
150.6,0.0148971526362311
150.9,0.01500550327796
151.2,0.0151189287388986
151.5,0.015237403690694
151.8,0.0153609029395393
152.1,0.0154894014261733
152.4,0.0156228742258805
152.7,0.015761296548491
153,0.0159046437383809
153.3,0.0160528912744716
153.6,0.0162060147702307
153.9,0.0163639899736712
154.2,0.0165267927673518
154.5,0.0166943991683772
154.8,0.0168667853283975
155.1,0.0170439275336088
155.4,0.0172258022047527
155.7,0.0174123858971166
156,0.0176036553005337
156.3,0.0177995872393828
156.6,0.0180001586725885
156.9,0.0182053466936211
157.2,0.0184151285304966
157.5,0.0186294815457767
157.8,0.0188483832365689
158.1,0.0190718112345264
158.4,0.0192997433058479
158.7,0.0195321573512783
159,0.0197690314061077
159.3,0.0200103436401723
159.6,0.0202560723578538
159.9,0.0205061959980797
160.2,0.0207606931343233
160.5,0.0210195424746035
160.8,0.0212827228614849
161.1,0.0215502132720779
161.4,0.0218219928180386
161.7,0.0220980407455689
162,0.0223783364354162
162.3,0.022662859402874
162.6,0.022951589297781
162.9,0.0232445059045221
163.2,0.0235415891420276
163.5,0.0238428190637737
163.8,0.0241481758577822
164.1,0.0244327146159155
164.4,0.0247082444614898
164.7,0.0249827790725052
165,0.0252559513608174
165.3,0.0255273972971388
165.6,0.0257967559110388
165.9,0.0260636692909441
166.2,0.0263277825841383
166.5,0.0265887439967621
166.8,0.026846204793813
167.1,0.0270998192991458
167.4,0.0281333104542373
167.7,0.0292660385401707
168,0.0304624628943767
168.3,0.031718064603521
168.6,0.0330285397328057
168.9,0.0343897993259671
169.2,0.0357979694052773
169.5,0.0372493909715433
169.8,0.0387406200041069
170.1,0.0402684274608459
170.4,0.0418297992781724
170.7,0.0434219363710344
171,0.0450422546329147
171.3,0.0461228784804618
171.6,0.0472189547035015
171.9,0.0483580427423798
172.2,0.0495407011117664
172.5,0.0507675160097813
172.8,0.0520391013179952
173.1,0.0533560986014298
173.4,0.0547191771085573
173.7,0.0561290337713005
174,0.0575863932050332
174.3,0.0590920077085795
174.6,0.0606466572642146
174.9,0.0622511495376639
175.2,0.0639063198781039
175.5,0.0656130313181618
175.8,0.067372174573915
176.1,0.0691846680448923
176.4,0.0710514578140729
176.7,0.0729735176478862
177,0.074951848996213
177.3,0.0769874809923845
177.6,0.0790814704531828
177.9,0.0812349018788402
178.2,0.08344888745304
178.5,0.0857245670429166
178.8,0.0880631081990541
179.1,0.0904657061554883
179.4,0.0929335838297052
179.7,0.0954679918226413
180,0.0980702084186844
180.3,0.100741539585673
180.6,0.103483318974894
180.9,0.10629690792109
181.2,0.109183695442448
181.5,0.112145098240612
181.8,0.115182560700672
182.1,0.118297554891169
182.4,0.121491580564099
182.7,0.124766165154903
183,0.128122863782478
183.3,0.131563259249166
183.6,0.136339849724091
183.9,0.141865113200408
184.2,0.147768896967363
184.5,0.15404984165302
184.8,0.160706583084436
185.1,0.167737752287662
185.4,0.175141975487745
185.7,0.182917874108724
186,0.191064064773631
186.3,0.199579159304496
186.6,0.208461764722339
186.9,0.21761868579806
187.2,0.226900730531553
187.5,0.236304629814106
187.8,0.245828945178125
188.1,0.255472243164852
188.4,0.265233095324376
188.7,0.275110078215621
189,0.285101773406354
189.3,0.295206767473184
189.6,0.305423652001558
189.9,0.315751023585763
190.2,0.326187483828932
190.5,0.336731639343031
190.8,0.347382101748873
191.1,0.358137487676107
191.4,0.368996418763225
191.7,0.37995752165756
192,0.391019428015283
192.3,0.40218077450141
192.6,0.413440202789792
192.9,0.424796359563123
193.2,0.43624789651294
193.5,0.447793470339617
193.8,0.459431742752372
194.1,0.471161380469261
194.4,0.48298105521718
194.7,0.494889443731867
195,0.506885227757902
195.3,0.518967094048703
195.6,0.531133734366529
195.9,0.543383845482481
196.2,0.555716129176499
196.5,0.568129292237365
196.8,0.580622046462699
197.1,0.601457505896332
197.4,0.627329410376117
197.7,0.653949133126618
198,0.681260152518819
198.3,0.709209992263494
198.6,0.737750221411208
198.9,0.766836454352306
199.2,0.796428350816934
199.5,0.82648961587501
199.8,0.856987999936245
200.1,0.88705539119114
200.4,0.917680373965237
200.7,0.948903408341749
201,0.980713558258105
201.3,1.01309994539619
201.6,1.04605174918236
201.9,1.07955820678742
202.2,1.11360861312665
202.5,1.14819232085979
202.8,1.18329874039103
203.1,1.21891733986905
203.4,1.25503764518697
203.7,1.29164923998236
204,1.32874176563729
204.3,1.36630492127825
204.6,1.40432846377624
204.9,1.45358448574587
205.2,1.5221315070782
205.5,1.5906353021924
205.8,1.65909316017156
206.1,1.72750557639497
206.4,1.79587625253817
206.7,1.86421209657284
207,1.93252322276692
207.3,2.00082295168451
207.6,2.06912781018592
207.9,2.13745753142767
208.2,2.20896646857023
208.5,2.28576233721593
208.8,2.36456394430336
209.1,2.44535986985574
209.4,2.52813875770547
209.7,2.61288931549415
210,2.69960031467258
210.3,2.78826059050075
210.6,2.87885904204784
210.9,2.97138463219224
211.2,3.06582638762152
211.5,3.16217339883247
211.8,3.26041482013103
212.1,3.36053986963237
212.4,3.46253782926084
212.7,3.60050024363767
213,3.74601464663402
213.3,3.89376984173297
213.6,4.04377707839317
213.9,4.19604787528334
214.2,4.35059402028211
214.5,4.50742757047816
214.8,4.66656085217014
215.1,4.82800646086665
215.4,4.99177726128639
215.7,5.15788638735793
216,5.32634724221989
216.3,5.49717349822089
216.6,5.67037909691951
216.9,5.84597824908436
217.2,6.02398543469402
217.5,6.17219483227207
217.8,6.34239368094625
218.1,6.54131055210161
218.4,6.76912857750991
218.7,7.02602883557914
219,7.31219035135355
219.3,7.62779009651377
219.6,7.97300298937658
219.9,8.34800189489518
220.2,8.7529576246589
220.5,9.18803893689345
220.8,9.65341253646081
221.1,10.1492430748592
221.4,10.675693150223
221.7,11.2329233073233
222,11.821092037567
222.3,12.4403557789974
222.6,13.0908689162942
222.9,13.7727837807733
223.2,14.8596409299981
223.5,13.9018110193672
223.8,12.9769063341818
224.1,12.0933377117453
224.4,11.2590494549857
224.7,10.4815193324559
225,9.7677585783349
225.3,9.13802977285387
225.6,8.55018411235583
225.9,8.00858406585331
226.2,7.52350409039814
226.5,7.11113063108048
226.8,6.79356212102867
227.1,7.12853762389098
227.4,7.9712237228408
227.7,9.21830094496126
228,10.8393756321821
228.3,10.7381413456903
228.6,10.2085808360663
228.9,9.71225302227718
229.2,9.2566753503941
229.5,8.84868600731433
229.8,8.49444392076078
230.1,8.19942875928202
230.4,7.96844093225238
230.7,7.80560158987197
231,7.71435262316652
231.3,7.6974566639875
231.6,7.75699708501216
231.9,7.89437799974341
232.2,7.87238514863222
232.5,8.13972074557288
232.8,8.8562334765127
233.1,9.67470921656301
233.4,9.29150777673854
233.7,8.95246216395782
234,8.66315596596963
234.3,8.42804099447177
234.6,8.25043728511092
234.9,8.13253309748283
235.2,8.07538491513215
235.5,8.07891744555245
235.8,8.14192362018636
236.1,8.26206459442533
236.4,8.43586974760992
236.7,8.65873668302952
237,8.92493122792334
237.3,8.14001790761829
237.6,7.9831451838643
237.9,8.37925397662967
238.2,8.89244893791029
238.5,8.61575433771654
238.8,8.39497574841303
239.1,8.23482674263135
239.4,8.1387141697123
239.7,8.10873815570591
240,8.14569210337142
240.3,8.24906269217727
240.6,8.41702987830111
240.9,8.64646689462985
241.2,8.93294025075953
241.5,9.27070973299543
241.8,9.65272840435211
242.1,8.99105645929398
242.4,8.06343451310638
242.7,7.73471298964009
243,7.93115185948467
243.3,7.9680202138767
243.6,7.8783267264445
243.9,7.81342403384191
244.2,7.80322961814889
244.5,7.86973805793756
244.8,8.02702102827204
245.1,8.2812273007084
245.4,8.63058274329484
245.7,9.06539032057145
246,9.56803009357034
246.3,10.1173388768759
246.6,10.6313294374261
246.9,11.0501472713677
247.2,10.2509923409421
247.5,8.84323996395309
247.8,7.56376297499788
248.1,6.83851836198339
248.4,7.02448092777536
248.7,7.33136309549718
249,7.74415908539727
249.3,8.24913936127813
249.6,8.83385063049606
249.9,9.48711584396153
250.2,10.1990341961388
250.5,10.9609811250459
250.8,11.7656083122554
251.1,12.6068436828932
251.4,13.4798914056394
251.7,14.3812318927282
252,15.3086217999478
252.3,14.3739526382505
252.6,13.3776790119087
252.9,12.4129319428314
253.2,11.4785211964066
253.5,10.7751726307095
253.8,10.2078109232333
254.1,9.66289224961773
254.4,9.3942984136014
254.7,9.12824351185717
255,8.78714793012282
255.3,8.44609182146186
255.6,8.11671596026336
255.9,7.79902558650565
256.2,7.49302493244739
256.5,7.19871722262775
256.8,6.91610467386628
257.1,6.64518849526304
257.4,6.38596888819828
257.7,6.13844504633289
258,5.90261515560807
258.3,5.67847639424549
258.6,5.46482922134136
258.9,5.25517883548484
259.2,5.0522225598713
